#Frequency,Eps1,Eps2,Eps1,Eps2
100.281,-2057.76902,371.3784127,5,0.1
100.924,-2038.202549,357.4649578,5,0.1
101.567,-2018.933312,342.882628,5,0.1
102.21,-1999.955697,329.7378273,5,0.1
102.852,-1983.482733,317.4837602,5,0.1
103.495,-1978.730031,308.2430722,5,0.1
104.138,-1972.720714,263.8674768,5,0.1
104.781,-1942.36743,226.8425322,5,0.1
105.424,-1905.50666,194.2897927,5,0.1
106.067,-1858.193034,163.8697759,5,0.1
106.709,-1799.478313,148.5167915,5,0.1
107.352,-1743.088441,156.9321401,5,0.1
107.995,-1704.824158,180.8396089,5,0.1
108.638,-1688.227065,202.3357095,5,0.1
109.281,-1683.968372,209.3590163,5,0.1
109.924,-1678.810655,201.412431,5,0.1
110.566,-1666.056367,187.6386011,5,0.1
111.209,-1647.829772,174.0572673,5,0.1
111.852,-1626.779333,160.4523256,5,0.1
112.495,-1602.797083,146.8956726,5,0.1
113.138,-1573.989264,133.2220996,5,0.1
113.781,-1535.29102,123.6525302,5,0.1
114.423,-1506.167153,141.5892578,5,0.1
115.066,-1492.481029,139.6578897,5,0.1
115.709,-1472.886954,136.9084841,5,0.1
116.352,-1452.591419,134.0814637,5,0.1
116.995,-1431.831551,131.2092569,5,0.1
117.637,-1410.423999,128.2701943,5,0.1
118.28,-1387.632824,125.1664909,5,0.1
118.923,-1358.917088,121.2901024,5,0.1
119.566,-1325.738672,130.8535375,5,0.1
120.209,-1308.031349,157.9501703,5,0.1
120.852,-1307.440638,167.4549054,5,0.1
121.494,-1303.060646,166.6093424,5,0.1
122.137,-1293.798035,164.8237176,5,0.1
122.78,-1282.984628,162.7507729,5,0.1
123.423,-1271.143557,160.4896873,5,0.1
124.066,-1258.2199,158.035283,5,0.1
124.709,-1240.219933,154.6368239,5,0.1
125.351,-1230.213797,169.8767274,5,0.1
125.994,-1227.540909,157.608742,5,0.1
126.637,-1208.760134,153.5080454,5,0.1
127.28,-1192.202955,158.7402734,5,0.1
127.923,-1183.405701,165.3040174,5,0.1
128.566,-1177.257299,164.4675045,5,0.1
129.208,-1165.868935,162.0689121,5,0.1
129.851,-1151.671347,166.6741787,5,0.1
130.494,-1145.635336,180.9110929,5,0.1
131.137,-1155.508184,190.5237224,5,0.1
131.78,-1172.751272,180.5044994,5,0.1
132.423,-1177.670771,150.333736,5,0.1
133.065,-1160.66093,120.8199895,5,0.1
133.708,-1132.029718,105.3021407,5,0.1
134.351,-1104.766909,103.5588438,5,0.1
134.994,-1084.177604,107.4435207,5,0.1
135.637,-1069.824098,113.1406017,5,0.1
136.279,-1060.89746,117.1498999,5,0.1
136.922,-1054.910303,116.5391786,5,0.1
137.565,-1045.845859,109.3461051,5,0.1
138.208,-1030.237426,104.3084773,5,0.1
138.851,-1013.669424,106.1287291,5,0.1
139.494,-1002.551182,112.2175617,5,0.1
140.136,-997.0479556,114.4761426,5,0.1
140.779,-990.9451771,110.9683212,5,0.1
141.422,-980.5705451,106.4634306,5,0.1
142.065,-968.3968876,105.1562809,5,0.1
142.708,-956.887688,104.6093909,5,0.1
143.351,-945.7271896,104.7388946,5,0.1
143.993,-933.81761,104.0397709,5,0.1
144.636,-919.7831783,105.4591272,5,0.1
145.279,-905.2069424,110.9339293,5,0.1
145.922,-893.893826,122.4868486,5,0.1
146.565,-890.0964175,135.9678471,5,0.1
147.208,-893.8528153,146.0735585,5,0.1
147.85,-900.4129198,147.700964,5,0.1
148.493,-903.6266959,144.7350245,5,0.1
149.136,-904.782066,143.4461789,5,0.1
149.779,-910.2315561,143.491493,5,0.1
150.422,-922.0336805,136.0286102,5,0.1
151.065,-931.0068604,113.1684589,5,0.1
151.707,-924.2381441,82.32191642,5,0.1
152.35,-901.4443994,58.87346695,5,0.1
152.993,-873.8893952,49.91746842,5,0.1
153.636,-851.2354265,50.73047645,5,0.1
154.279,-835.1480016,53.29705349,5,0.1
154.921,-821.3165057,53.27986698,5,0.1
155.564,-806.119751,53.32645724,5,0.1
156.207,-789.0747434,55.32245572,5,0.1
156.85,-772.008451,62.81695129,5,0.1
157.493,-759.236977,75.72663943,5,0.1
158.136,-754.1225681,90.79023177,5,0.1
158.778,-757.1531405,102.4411913,5,0.1
159.421,-764.6751469,105.6665755,5,0.1
160.064,-769.6849017,99.42933486,5,0.1
160.707,-767.4473995,89.85853833,5,0.1
161.35,-758.8031885,81.75345047,5,0.1
161.993,-746.9664088,78.46796385,5,0.1
162.635,-735.5314126,79.35431048,5,0.1
163.278,-725.5587678,82.57518073,5,0.1
163.921,-717.6054209,88.37419477,5,0.1
164.564,-713.3864556,95.80555628,5,0.1
165.207,-713.6326037,102.1598079,5,0.1
165.85,-717.5387829,105.205185,5,0.1
166.492,-722.1338998,102.0076033,5,0.1
167.135,-723.0736207,94.68066846,5,0.1
167.778,-719.625308,87.44060231,5,0.1
168.421,-714.5775113,82.85309187,5,0.1
169.064,-711.0086086,79.2414828,5,0.1
169.707,-707.8406899,72.57768226,5,0.1
170.349,-701.7670602,64.16042169,5,0.1
170.992,-691.8884456,56.32113967,5,0.1
171.635,-679.4942099,51.66499989,5,0.1
172.278,-666.9029118,50.23455488,5,0.1
172.921,-654.4633912,50.50784079,5,0.1
173.563,-642.3999421,54.00405066,5,0.1
174.206,-632.7899795,60.60922577,5,0.1
174.849,-627.2919389,68.45128442,5,0.1
175.492,-625.6901986,74.53880229,5,0.1
176.135,-625.6305055,77.18256484,5,0.1
176.778,-624.9265002,77.58211556,5,0.1
177.42,-623.1835701,77.08039764,5,0.1
178.063,-620.8766629,76.47530286,5,0.1
178.706,-618.3219584,75.48007463,5,0.1
179.349,-615.5942903,74.46115328,5,0.1
179.992,-612.4385884,72.68711817,5,0.1
180.635,-608.466366,71.47042849,5,0.1
181.277,-604.7079783,71.14244593,5,0.1
181.92,-601.9481668,70.98700762,5,0.1
182.563,-600.0131427,69.81462322,5,0.1
183.206,-597.7226791,67.10695422,5,0.1
183.849,-594.2363634,63.91139801,5,0.1
184.492,-589.5217443,60.73988735,5,0.1
185.134,-584.0631301,58.62930643,5,0.1
185.777,-578.350291,56.99027006,5,0.1
186.42,-572.5353025,56.43838677,5,0.1
187.063,-567.1015506,56.54326,5,0.1
187.706,-562.3537433,57.47722391,5,0.1
188.349,-558.7031809,58.54805566,5,0.1
188.991,-556.1223291,59.32021637,5,0.1
189.634,-554.5679165,59.21801261,5,0.1
190.277,-553.1811906,57.09586298,5,0.1
190.92,-550.4709488,53.49099572,5,0.1
191.563,-545.6725125,49.51358496,5,0.1
192.205,-538.9881351,46.79007566,5,0.1
192.848,-531.6586895,46.24791639,5,0.1
193.491,-525.0442986,47.66941581,5,0.1
194.134,-520.2822905,50.47229607,5,0.1
194.777,-517.6233547,52.72569804,5,0.1
195.42,-516.1998423,53.69284397,5,0.1
196.062,-514.8902069,52.70079281,5,0.1
196.705,-512.2014915,50.337544,5,0.1
197.348,-507.7581883,48.40225318,5,0.1
197.991,-502.7420555,48.06391927,5,0.1
198.634,-498.5055454,48.82818887,5,0.1
199.277,-495.3999216,49.60739024,5,0.1
199.919,-492.9252013,49.6041607,5,0.1
200.562,-490.1468356,48.69714537,5,0.1
201.205,-486.6686134,47.81803649,5,0.1
201.848,-482.6945764,47.23246532,5,0.1
202.491,-478.7315046,47.59030905,5,0.1
203.134,-475.4257567,48.26051986,5,0.1
203.776,-472.6130995,48.75481201,5,0.1
204.419,-470.1157972,49.17020743,5,0.1
205.062,-467.9344322,49.2827217,5,0.1
205.705,-465.9713536,49.08554299,5,0.1
206.348,-464.1642306,48.3493588,5,0.1
206.991,-462.0872489,46.79768117,5,0.1
207.633,-458.9395864,44.665258,5,0.1
208.276,-454.6295828,43.38558219,5,0.1
208.919,-450.3623498,43.52452948,5,0.1
209.562,-447.0117823,44.20476704,5,0.1
210.205,-444.5395776,44.67920001,5,0.1
210.847,-442.4761214,44.36799516,5,0.1
211.49,-439.8954713,43.15186736,5,0.1
212.133,-436.4158285,42.23148343,5,0.1
212.776,-432.8237426,42.11413798,5,0.1
213.419,-429.5783259,42.13934447,5,0.1
214.062,-426.3594509,42.06149081,5,0.1
214.704,-422.8885017,42.1333719,5,0.1
215.347,-419.3318419,42.85562624,5,0.1
215.99,-416.2344563,44.29111837,5,0.1
216.633,-414.3492552,46.27090186,5,0.1
217.276,-413.7655327,47.2183938,5,0.1
217.919,-413.3720907,46.67621945,5,0.1
218.561,-412.0479737,44.84786981,5,0.1
219.204,-409.173872,42.98033083,5,0.1
219.847,-405.3322937,42.28354187,5,0.1
220.49,-401.7513518,42.99238699,5,0.1
221.133,-399.1288838,44.18906294,5,0.1
221.776,-397.4497533,45.34100594,5,0.1
222.418,-396.3934334,45.78461181,5,0.1
223.061,-395.3431072,45.51325686,5,0.1
223.704,-393.9876145,44.83681754,5,0.1
224.347,-392.2881294,44.020134,5,0.1
224.99,-390.3565148,43.25939153,5,0.1
225.633,-388.2420948,42.47608481,5,0.1
226.275,-385.808743,41.82042601,5,0.1
226.918,-383.4162631,41.85404735,5,0.1
227.561,-381.5646736,41.97102955,5,0.1
228.204,-380.2361865,41.91906962,5,0.1
228.847,-378.9843535,40.96300651,5,0.1
229.49,-377.1722445,39.76112683,5,0.1
230.132,-374.9525303,38.67479497,5,0.1
230.775,-372.5954349,37.82522479,5,0.1
231.418,-370.0016505,36.87036063,5,0.1
232.061,-367.1812674,36.52836392,5,0.1
232.704,-364.6675389,36.54472127,5,0.1
233.346,-362.5790411,36.61898321,5,0.1
233.989,-360.707223,36.33548912,5,0.1
234.632,-358.6496427,35.79582878,5,0.1
235.275,-356.3100803,35.37016051,5,0.1
235.918,-353.9891303,35.32409454,5,0.1
236.561,-352.0276779,35.40183857,5,0.1
237.203,-350.3469345,35.14841457,5,0.1
237.846,-348.4640431,34.4264643,5,0.1
238.489,-346.0227623,33.70350666,5,0.1
239.132,-343.328182,33.59601306,5,0.1
239.775,-340.8529729,33.86942818,5,0.1
240.418,-338.7683848,34.40047745,5,0.1
241.06,-337.0737369,34.76874848,5,0.1
241.703,-335.5608696,34.9501939,5,0.1
242.346,-334.1063276,34.86067784,5,0.1
242.989,-332.4991646,34.54082791,5,0.1
243.632,-330.6224726,34.24845596,5,0.1
244.275,-328.6599755,34.27929967,5,0.1
244.917,-326.8851098,34.5343918,5,0.1
245.56,-325.5639251,34.98743481,5,0.1
246.203,-324.6788935,34.91035071,5,0.1
246.846,-323.668149,34.28778456,5,0.1
247.489,-322.3356624,33.48901287,5,0.1
248.132,-320.7001411,32.58757302,5,0.1
248.774,-318.7328918,31.77598462,5,0.1
249.417,-316.5905979,31.26611276,5,0.1
250.06,-314.4477631,30.949022,5,0.1
250.703,-312.3434886,30.82483299,5,0.1
251.346,-310.3549728,30.83826926,5,0.1
251.988,-308.417728,30.85450218,5,0.1
252.631,-306.5627303,31.12003626,5,0.1
253.274,-304.9850763,31.41984618,5,0.1
253.917,-303.5386428,31.55373164,5,0.1
254.56,-302.1577673,31.75318865,5,0.1
255.203,-301.0098649,31.92539529,5,0.1
255.845,-300.169014,31.90913614,5,0.1
256.488,-299.3811754,31.25767595,5,0.1
257.131,-298.1232237,30.19074315,5,0.1
257.774,-296.3314027,29.23014225,5,0.1
258.417,-294.2124772,28.52013761,5,0.1
259.06,-291.9401147,28.19036728,5,0.1
259.702,-289.6612526,28.19321198,5,0.1
260.345,-287.5498762,28.65341984,5,0.1
260.988,-285.9458034,29.39418862,5,0.1
261.631,-284.8385697,29.87387069,5,0.1
262.274,-283.9169184,29.99889545,5,0.1
262.917,-282.8912783,29.72918318,5,0.1
263.559,-281.6256896,29.42299348,5,0.1
264.202,-280.2201179,29.14995405,5,0.1
264.845,-278.802392,29.0340597,5,0.1
265.488,-277.4369732,28.87314496,5,0.1
266.131,-276.0885405,28.76612887,5,0.1
266.774,-274.7338897,28.55458466,5,0.1
267.416,-273.3068933,28.4343881,5,0.1
268.059,-271.9761909,28.42932798,5,0.1
268.702,-270.7655009,28.28997742,5,0.1
269.345,-269.4397542,27.98249334,5,0.1
269.988,-267.9104079,27.79399792,5,0.1
270.63,-266.4102121,27.9041871,5,0.1
271.273,-265.2112189,28.15489979,5,0.1
271.916,-264.2868627,28.15357627,5,0.1
272.559,-263.2995542,27.80259763,5,0.1
273.202,-261.9958367,27.35713813,5,0.1
273.845,-260.5137693,27.22007713,5,0.1
274.487,-259.2707885,27.35560628,5,0.1
275.13,-258.2984914,27.24846623,5,0.1
275.773,-257.3074888,26.90542002,5,0.1
276.416,-256.1192464,26.3492537,5,0.1
277.059,-254.6834312,25.85290853,5,0.1
277.702,-252.9809473,25.36759537,5,0.1
278.344,-251.119289,25.35712136,5,0.1
278.987,-249.4017816,25.58632277,5,0.1
279.63,-247.9096791,26.06208552,5,0.1
280.273,-246.6432234,26.47553998,5,0.1
280.916,-245.514082,26.99025726,5,0.1
281.559,-244.641819,27.49673227,5,0.1
282.201,-243.9988288,27.86366839,5,0.1
282.844,-243.5307209,28.04232759,5,0.1
283.487,-243.1170434,27.88470312,5,0.1
284.13,-242.5800743,27.49236888,5,0.1
284.773,-241.8456317,26.94104925,5,0.1
285.416,-240.8903945,26.40040297,5,0.1
286.058,-239.8322274,25.97456128,5,0.1
286.701,-238.7512261,25.59042377,5,0.1
287.344,-237.6536338,25.24845834,5,0.1
287.987,-236.5347616,24.90592545,5,0.1
288.63,-235.356003,24.59744162,5,0.1
289.272,-234.1581017,24.41000723,5,0.1
289.915,-233.1172733,24.36830851,5,0.1
290.558,-232.2177186,24.10730518,5,0.1
291.201,-231.2776884,23.76252822,5,0.1
291.844,-230.2371682,23.24772535,5,0.1
292.487,-228.9795294,22.74480987,5,0.1
293.129,-227.5798589,22.38191718,5,0.1
293.772,-226.0965588,22.1636639,5,0.1
294.415,-224.6346766,22.21513571,5,0.1
295.058,-223.3874285,22.44483315,5,0.1
295.701,-222.4103603,22.63481698,5,0.1
296.344,-221.5350629,22.57599383,5,0.1
296.986,-220.5513263,22.38891199,5,0.1
297.629,-219.4288058,22.2183113,5,0.1
298.272,-218.2588832,22.18667657,5,0.1
298.915,-217.1066057,22.22824336,5,0.1
299.558,-216.1564387,22.51352731,5,0.1
300.201,-215.416711,22.46953347,5,0.1
300.843,-214.5776892,22.3385436,5,0.1
301.486,-213.6394088,22.15718659,5,0.1
302.129,-212.672264,22.11215223,5,0.1
302.772,-211.7631827,22.04020678,5,0.1
303.415,-210.9511415,22.05247598,5,0.1
304.058,-210.2297387,21.8360207,5,0.1
304.7,-209.4279383,21.53996349,5,0.1
305.343,-208.5070043,21.12602045,5,0.1
305.986,-207.4084184,20.7571854,5,0.1
306.629,-206.2033778,20.50985253,5,0.1
307.272,-204.9657557,20.42509625,5,0.1
307.914,-203.8706852,20.55775369,5,0.1
308.557,-202.9827353,20.58716189,5,0.1
309.2,-202.0895373,20.45160561,5,0.1
309.843,-201.1055482,20.30266027,5,0.1
310.486,-199.9957156,20.13506658,5,0.1
311.129,-198.8690639,20.25073115,5,0.1
311.771,-197.9443921,20.39331168,5,0.1
312.414,-197.1025293,20.42008074,5,0.1
313.057,-196.2520825,20.4127004,5,0.1
313.7,-195.4059233,20.37370405,5,0.1
314.343,-194.5444367,20.30080716,5,0.1
314.986,-193.6585408,20.22342049,5,0.1
315.628,-192.7509894,20.14227231,5,0.1
316.271,-191.8345928,20.08920319,5,0.1
316.914,-190.9024853,20.00304148,5,0.1
317.557,-189.8894683,19.93309707,5,0.1
318.2,-188.8422382,20.00390857,5,0.1
318.843,-187.8544092,20.1685513,5,0.1
319.485,-187.0095974,20.43910927,5,0.1
320.128,-186.299091,20.5827469,5,0.1
320.771,-185.5894743,20.66637941,5,0.1
321.414,-184.8627573,20.7167575,5,0.1
322.057,-184.1861552,20.83061358,5,0.1
322.7,-183.5827333,20.8132509,5,0.1
323.342,-182.9609051,20.7358601,5,0.1
323.985,-182.2665046,20.53408996,5,0.1
324.628,-181.432789,20.36567428,5,0.1
325.271,-180.5374653,20.29802397,5,0.1
325.914,-179.6734356,20.34453892,5,0.1
326.556,-178.9091781,20.43291646,5,0.1
327.199,-178.2549087,20.48355395,5,0.1
327.842,-177.6396198,20.37760408,5,0.1
328.485,-176.8894024,20.11483873,5,0.1
329.128,-175.9034863,19.89406809,5,0.1
329.771,-174.7800403,19.91445705,5,0.1
330.413,-173.7649434,20.237336,5,0.1
331.056,-173.0109966,20.62517601,5,0.1
331.699,-172.4600049,20.91498173,5,0.1
332.342,-171.9531161,21.00330257,5,0.1
332.985,-171.3500646,21.02123957,5,0.1
333.628,-170.6935923,21.10475894,5,0.1
334.27,-170.0867732,21.24640305,5,0.1
334.913,-169.6093439,21.41017817,5,0.1
335.556,-169.2363556,21.38993592,5,0.1
336.199,-168.762379,21.1745096,5,0.1
336.842,-168.1268098,20.98020043,5,0.1
337.485,-167.3987123,20.81924985,5,0.1
338.127,-166.6263091,20.77392276,5,0.1
338.77,-165.8663564,20.77893171,5,0.1
339.413,-165.1148366,20.8568216,5,0.1
340.056,-164.4190028,21.01538277,5,0.1
340.699,-163.8353413,21.21664735,5,0.1
341.342,-163.378312,21.36800618,5,0.1
341.984,-162.9749244,21.38462747,5,0.1
342.627,-162.5241581,21.29593572,5,0.1
343.27,-161.9850252,21.16628259,5,0.1
343.913,-161.3602137,21.06758813,5,0.1
344.556,-160.7111103,21.05777764,5,0.1
345.198,-160.1125801,21.10328858,5,0.1
345.841,-159.5677679,21.13490718,5,0.1
346.484,-159.0547178,21.14856444,5,0.1
347.127,-158.53307,21.09052918,5,0.1
347.77,-157.9587887,21.04466892,5,0.1
348.413,-157.3401001,21.01207043,5,0.1
349.055,-156.7072222,21.08891553,5,0.1
349.698,-156.1588692,21.24831982,5,0.1
350.341,-155.7448855,21.41061827,5,0.1
350.984,-155.4179885,21.4551022,5,0.1
351.627,-155.081923,21.40786323,5,0.1
352.27,-154.7128388,21.30917852,5,0.1
352.912,-154.3202582,21.1838517,5,0.1
353.555,-153.8931222,21.00777423,5,0.1
354.198,-153.4100621,20.82123131,5,0.1
354.841,-152.8657156,20.62325284,5,0.1
355.484,-152.2225907,20.4498872,5,0.1
356.127,-151.5387391,20.44140488,5,0.1
356.769,-150.9151911,20.50792911,5,0.1
357.412,-150.3834677,20.67647047,5,0.1
358.055,-150.002813,20.83159638,5,0.1
358.698,-149.7040996,20.87528578,5,0.1
359.341,-149.4144985,20.85702577,5,0.1
359.984,-149.1388479,20.77823046,5,0.1
360.626,-148.8482182,20.61244949,5,0.1
361.269,-148.4889875,20.39140764,5,0.1
361.912,-148.046311,20.17549149,5,0.1
362.555,-147.5684646,20.03645587,5,0.1
363.198,-147.1365971,19.94853122,5,0.1
363.84,-146.7691761,19.83285784,5,0.1
364.483,-146.4047137,19.63634395,5,0.1
365.126,-145.9768318,19.40803298,5,0.1
365.769,-145.5188468,19.2358723,5,0.1
366.412,-145.0981368,19.07199809,5,0.1
367.055,-144.6864326,18.85060011,5,0.1
367.697,-144.2215402,18.60036245,5,0.1
368.34,-143.7346764,18.40723905,5,0.1
368.983,-143.2556396,18.17742846,5,0.1
369.626,-142.743592,17.96256039,5,0.1
370.269,-142.2302684,17.7684623,5,0.1
370.912,-141.7156753,17.55609845,5,0.1
371.554,-141.1677339,17.33896963,5,0.1
372.197,-140.5895653,17.15630655,5,0.1
372.84,-139.990472,16.9900472,5,0.1
373.483,-139.3826746,16.89851705,5,0.1
374.126,-138.8118985,16.85136978,5,0.1
374.769,-138.3098077,16.85340658,5,0.1
375.411,-137.8991812,16.81581504,5,0.1
376.054,-137.5216683,16.69145802,5,0.1
376.697,-137.1067472,16.4871962,5,0.1
377.34,-136.623638,16.27227437,5,0.1
377.983,-136.1079292,16.08946784,5,0.1
378.626,-135.5704075,15.90412923,5,0.1
379.268,-135.0141932,15.77075072,5,0.1
379.911,-134.4545406,15.65524657,5,0.1
380.554,-133.9344234,15.63566323,5,0.1
381.197,-133.5380335,15.60177297,5,0.1
381.84,-133.2107733,15.43908822,5,0.1
382.482,-132.8314101,15.12822385,5,0.1
383.125,-132.2856917,14.73984024,5,0.1
383.768,-131.5928135,14.46949297,5,0.1
384.411,-130.8793704,14.31819154,5,0.1
385.054,-130.2071461,14.25936184,5,0.1
385.697,-129.6081895,14.22881305,5,0.1
386.339,-129.0444153,14.15319046,5,0.1
386.982,-128.4409367,14.05440201,5,0.1
387.625,-127.7918044,14.01439257,5,0.1
388.268,-127.1823658,14.07840792,5,0.1
388.911,-126.6692926,14.14024059,5,0.1
389.554,-126.1966231,14.14251376,5,0.1
390.196,-125.6974956,14.10745757,5,0.1
390.839,-125.1797505,14.11675425,5,0.1
391.482,-124.7279051,14.16813492,5,0.1
392.125,-124.3608634,14.13769171,5,0.1
392.768,-123.9457521,13.94091338,5,0.1
393.411,-123.3422618,13.71430554,5,0.1
394.053,-122.6048844,13.65414028,5,0.1
394.696,-121.8969753,13.78287257,5,0.1
395.339,-121.3146998,14.00600468,5,0.1
395.982,-120.8558593,14.23168082,5,0.1
396.625,-120.4846849,14.42449841,5,0.1
397.268,-120.1751292,14.56592252,5,0.1
397.91,-119.8921424,14.63545886,5,0.1
398.553,-119.5952609,14.65652493,5,0.1
399.196,-119.2892624,14.675477,5,0.1
399.839,-119.0163052,14.68509667,5,0.1
400.482,-118.7498726,14.60613642,5,0.1
401.125,-118.428844,14.502649,5,0.1
401.767,-118.0694166,14.40737939,5,0.1
402.41,-117.7011605,14.34023338,5,0.1
403.053,-117.3443681,14.27532818,5,0.1
403.696,-117.0024087,14.21318225,5,0.1
404.339,-116.6730361,14.12447514,5,0.1
404.981,-116.3555491,14.02379667,5,0.1
405.624,-116.0353708,13.85121838,5,0.1
406.267,-115.6515596,13.6256752,5,0.1
406.91,-115.1602552,13.38318007,5,0.1
407.553,-114.5554913,13.22208027,5,0.1
408.196,-113.9286203,13.22578829,5,0.1
408.838,-113.3876048,13.34013874,5,0.1
409.481,-112.9609415,13.48595246,5,0.1
410.124,-112.633359,13.60636767,5,0.1
410.767,-112.3652337,13.65399354,5,0.1
411.41,-112.1013063,13.63338655,5,0.1
412.053,-111.8311884,13.58435969,5,0.1
412.695,-111.5506141,13.47924766,5,0.1
413.338,-111.2417578,13.35600608,5,0.1
413.981,-110.8956136,13.1865525,5,0.1
414.624,-110.4817442,13.01968544,5,0.1
415.267,-110.0056084,12.88293033,5,0.1
415.91,-109.5025436,12.83461191,5,0.1
416.552,-109.0338769,12.84427447,5,0.1
417.195,-108.5986196,12.87194913,5,0.1
417.838,-108.1971827,12.93042538,5,0.1
418.481,-107.8348153,12.98187543,5,0.1
419.124,-107.4906497,13.03553622,5,0.1
419.767,-107.1909466,13.12208256,5,0.1
420.409,-106.9755133,13.18475194,5,0.1
421.052,-106.8267373,13.1701385,5,0.1
421.695,-106.6784151,13.01574959,5,0.1
422.338,-106.4180732,12.75334662,5,0.1
422.981,-106.0001735,12.51536015,5,0.1
